# DELTA 2 R/B (40060), eccentricity: 0.31, perigee(km): 2379.30
0	1117.97	1556.58	2647.08
1	1123.24	1566.05	2662.67
2	1127.57	1574.22	2676.03
3	1130.95	1581.09	2687.16
4	1133.40	1586.67	2696.08
5	1134.92	1590.95	2702.76
6	1135.51	1593.92	2707.22
7	1135.17	1595.59	2709.46
8	1133.91	1595.96	2709.46
9	1131.73	1595.02	2707.24
10	1128.63	1592.78	2702.80
11	1124.62	1589.23	2696.12
12	1119.70	1584.37	2687.22
13	1113.87	1578.21	2676.10
14	1107.14	1570.73	2662.75
15	1099.51	1561.95	2647.18
16	1090.98	1551.87	2629.40
17	1081.56	1540.47	2609.39
18	1071.26	1527.76	2587.17
19	1060.07	1513.75	2562.74
20	1048.00	1498.43	2536.10
21	1035.05	1481.81	2507.26
22	1021.23	1463.88	2476.22
23	1006.54	1444.65	2442.97
24	990.99	1424.11	2407.54
25	974.58	1402.27	2369.92
26	957.32	1379.13	2330.11
27	939.20	1354.70	2288.13
28	920.23	1328.96	2243.97
29	900.42	1301.94	2197.65
30	879.77	1273.61	2149.17
31	858.29	1244.00	2098.53
32	835.98	1213.10	2045.74
33	812.84	1180.91	1990.81
34	788.87	1147.44	1933.75
35	764.09	1112.69	1874.56
36	738.50	1076.66	1813.26
37	712.10	1039.36	1749.84
38	684.90	1000.78	1684.32
39	656.89	960.94	1616.70
40	628.10	919.83	1547.00
41	598.51	877.46	1475.22
42	568.13	833.84	1401.38
43	536.97	788.96	1325.48
44	505.04	742.83	1247.53
45	472.33	695.45	1167.54
46	438.85	646.84	1085.52
47	404.61	596.99	1001.49
48	369.61	545.91	915.46
49	333.86	493.60	827.42
50	297.36	440.07	737.41
51	260.11	385.32	645.42
52	222.12	329.36	551.48
53	183.39	272.20	455.58
54	143.93	213.83	357.76
55	103.74	154.27	258.01
56	62.83	93.52	156.35
57	21.21	31.59	52.79
58	15.96	6.22	10.64
59	47.53	18.52	31.74
60	78.37	30.52	52.40
61	108.47	42.22	72.64
62	137.85	53.62	92.45
63	166.50	64.72	111.83
64	194.43	75.54	130.78
65	221.65	86.06	149.30
66	248.14	96.28	167.40
67	273.92	106.22	185.06
68	298.99	115.87	202.30
69	323.35	125.24	219.11
70	347.00	134.32	235.49
71	369.95	143.11	251.44
72	392.20	151.63	266.96
73	413.75	159.86	282.05
74	434.60	167.81	296.71
75	454.77	175.49	310.94
76	474.24	182.89	324.75
77	493.03	190.02	338.12
78	511.13	196.87	351.06
79	528.55	203.45	363.57
80	545.29	209.77	375.65
81	561.36	215.81	387.30
82	576.75	221.59	398.52
83	591.48	227.10	409.31
84	605.53	232.35	419.67
85	618.93	237.34	429.59
86	631.66	242.07	439.09
87	643.73	246.54	448.15
88	655.14	250.75	456.79
89	665.91	254.71	464.99
90	676.02	258.41	472.76
91	685.48	261.86	480.10
92	694.30	265.06	487.01
93	702.48	268.01	493.49
94	710.02	270.71	499.54
95	716.92	273.16	505.15
96	723.19	275.37	510.33
97	728.83	277.34	515.08
98	733.84	279.06	519.40
99	738.23	280.54	523.29
100	741.99	281.79	526.75
101	745.13	282.80	529.77
102	747.66	283.57	532.36
103	749.57	284.11	534.52
104	750.87	284.41	536.25
105	751.57	284.49	537.55
106	751.65	284.33	538.41
107	751.14	283.95	538.85
108	750.02	283.34	538.85
109	748.31	282.50	538.42
110	746.00	281.44	537.56
111	743.10	280.16	536.26
112	739.61	278.65	534.53
113	735.53	276.93	532.38
114	730.87	274.99	529.79
115	725.63	272.83	526.77
116	719.80	270.46	523.31
117	713.41	267.88	519.43
118	706.43	265.08	515.11
119	698.89	262.07	510.36
120	690.78	258.85	505.18
121	682.10	255.43	499.57
122	672.86	251.80	493.53
123	663.06	247.96	487.05
124	652.71	243.92	480.14
125	641.79	239.68	472.81
126	630.33	235.23	465.04
127	618.31	230.59	456.84
128	605.74	225.75	448.21
129	592.63	220.71	439.14
130	578.98	215.47	429.65
131	564.79	210.05	419.73
132	550.06	204.43	409.37
133	534.79	198.61	398.58
134	518.99	192.61	387.37
135	502.66	186.42	375.72
136	485.80	180.04	363.64
137	468.42	173.48	351.13
138	450.51	166.73	338.20
139	432.09	159.80	324.83
140	413.14	152.69	311.03
141	393.68	145.39	296.80
142	373.70	137.92	282.14
143	353.21	130.26	267.05
144	332.22	122.43	251.53
145	310.71	114.43	235.59
146	288.71	106.25	219.21
147	266.20	97.89	202.40
148	243.19	89.37	185.17
149	219.68	80.67	167.50
150	195.68	71.80	149.41
151	171.18	62.77	130.89
152	146.19	53.57	111.94
153	120.71	44.20	92.56
154	94.75	34.67	72.75
155	68.30	24.98	52.52
156	41.38	15.12	31.86
157	13.97	5.10	10.77
158	10.77	3.66	8.31
159	32.06	10.90	24.77
160	52.88	17.96	40.89
161	73.22	24.85	56.68
162	93.08	31.57	72.14
163	112.47	38.11	87.26
164	131.38	44.49	102.05
165	149.82	50.69	116.51
166	167.78	56.72	130.63
167	185.28	62.59	144.41
168	202.31	68.28	157.86
169	218.87	73.81	170.98
170	234.96	79.18	183.76
171	250.59	84.37	196.20
172	265.76	89.41	208.31
173	280.47	94.28	220.09
174	294.72	98.99	231.53
175	308.51	103.53	242.63
176	321.85	107.92	253.40
177	334.73	112.15	263.83
178	347.16	116.21	273.93
179	359.13	120.12	283.69
180	370.66	123.87	293.11
181	381.73	127.47	302.20
182	392.36	130.91	310.95
183	402.55	134.19	319.37
184	412.28	137.32	327.45
185	421.58	140.30	335.19
186	430.43	143.12	342.60
187	438.84	145.80	349.67
188	446.81	148.32	356.41
189	454.35	150.69	362.81
190	461.45	152.92	368.87
191	468.11	154.99	374.60
192	474.34	156.92	379.99
193	480.14	158.70	385.04
194	485.51	160.34	389.76
195	490.45	161.83	394.14
196	494.96	163.17	398.18
197	499.04	164.38	401.88
198	502.70	165.44	405.25
199	505.94	166.36	408.29
200	508.75	167.14	410.98
201	511.14	167.77	413.34
202	513.11	168.27	415.36
203	514.66	168.63	417.05
204	515.79	168.85	418.40
205	516.51	168.94	419.41
206	516.81	168.89	420.08
207	516.70	168.70	420.42
208	516.18	168.38	420.42
209	515.24	167.92	420.09
210	513.90	167.34	419.41
211	512.14	166.62	418.40
212	509.98	165.76	417.06
213	507.42	164.78	415.37
214	504.44	163.67	413.35
215	501.07	162.42	411.00
216	497.29	161.05	408.30
217	493.11	159.55	405.27
218	488.53	157.93	401.91
219	483.55	156.17	398.20
220	478.17	154.30	394.16
221	472.40	152.29	389.78
222	466.23	150.17	385.07
223	459.67	147.91	380.02
224	452.71	145.54	374.63
225	445.36	143.05	368.91
226	437.62	140.43	362.85
227	429.50	137.69	356.45
228	420.98	134.84	349.71
229	412.07	131.86	342.64
230	402.78	128.77	335.24
231	393.11	125.56	327.50
232	383.05	122.23	319.42
233	372.61	118.78	311.00
234	361.78	115.22	302.25
235	350.58	111.55	293.17
236	338.99	107.76	283.74
237	327.03	103.86	273.98
238	314.69	99.84	263.89
239	301.97	95.71	253.46
240	288.87	91.48	242.69
241	275.41	87.13	231.59
242	261.57	82.67	220.15
243	247.35	78.10	208.38
244	232.77	73.42	196.27
245	217.81	68.64	183.83
246	202.49	63.75	171.05
247	186.80	58.75	157.94
248	170.74	53.65	144.49
249	154.31	48.44	130.71
250	137.52	43.13	116.59
251	120.37	37.71	102.14
252	102.85	32.19	87.35
253	84.97	26.57	72.23
254	66.73	20.84	56.78
255	48.13	15.02	40.99
256	29.17	9.09	24.86
257	9.85	3.07	8.40
258	8.34	2.46	6.41
259	24.85	7.33	19.11
260	41.01	12.09	31.56
261	56.80	16.73	43.74
262	72.25	21.25	55.67
263	87.33	25.65	67.34
264	102.07	29.95	78.75
265	116.44	34.12	89.90
266	130.47	38.19	100.80
267	144.14	42.14	111.43
268	157.46	45.98	121.81
269	170.43	49.71	131.93
270	183.05	53.33	141.79
271	195.32	56.83	151.39
272	207.24	60.23	160.73
273	218.82	63.52	169.81
274	230.04	66.70	178.64
275	240.92	69.77	187.20
276	251.45	72.73	195.51
277	261.64	75.59	203.56
278	271.48	78.34	211.34
279	280.97	80.98	218.87
280	290.13	83.52	226.14
281	298.94	85.96	233.15
282	307.40	88.28	239.91
283	315.53	90.51	246.40
284	323.31	92.63	252.63
285	330.76	94.65	258.60
286	337.86	96.57	264.32
287	344.62	98.38	269.77
288	351.05	100.10	274.97
289	357.14	101.71	279.90
290	362.89	103.23	284.58
291	368.30	104.64	288.99
292	373.38	105.96	293.15
293	378.12	107.17	297.05
294	382.52	108.29	300.69
295	386.59	109.31	304.06
296	390.33	110.24	307.18
297	393.73	111.06	310.04
298	396.80	111.79	312.64
299	399.54	112.43	314.98
300	401.95	112.97	317.06
301	404.03	113.42	318.88
302	405.77	113.77	320.44
303	407.19	114.03	321.73
304	408.27	114.20	322.77
305	409.03	114.27	323.56
306	409.46	114.25	324.08
307	409.56	114.14	324.34
308	409.34	113.94	324.34
309	408.79	113.65	324.08
310	407.91	113.27	323.56
311	406.70	112.80	322.78
312	405.18	112.25	321.74
313	403.32	111.60	320.44
314	401.15	110.86	318.89
315	398.64	110.03	317.07
316	395.82	109.12	314.99
317	392.67	108.12	312.65
318	389.21	107.04	310.06
319	385.42	105.87	307.20
320	381.31	104.61	304.08
321	376.88	103.27	300.71
322	372.12	101.84	297.07
323	367.05	100.33	293.17
324	361.67	98.74	289.02
325	355.96	97.06	284.60
326	349.93	95.30	279.93
327	343.59	93.46	275.00
328	336.93	91.54	269.80
329	329.95	89.53	264.35
330	322.66	87.45	258.64
331	315.06	85.28	252.67
332	307.13	83.04	246.44
333	298.90	80.71	239.94
334	290.34	78.31	233.19
335	281.48	75.82	226.19
336	272.30	73.26	218.92
337	262.81	70.62	211.39
338	253.01	67.90	203.60
339	242.89	65.11	195.56
340	232.47	62.24	187.25
341	221.73	59.29	178.69
342	210.68	56.27	169.87
343	199.32	53.17	160.78
344	187.65	50.00	151.44
345	175.68	46.75	141.84
346	163.39	43.43	131.99
347	150.80	40.03	121.87
348	137.90	36.56	111.49
349	124.69	33.02	100.86
350	111.17	29.40	89.97
351	97.35	25.71	78.82
352	83.22	21.96	67.41
353	68.78	18.12	55.74
354	54.04	14.22	43.81
355	38.99	10.25	31.63
356	23.64	6.21	19.19
357	7.99	2.09	6.48
358	7.36	2.07	5.34
359	21.93	6.16	15.91
360	36.20	10.17	26.28
361	50.17	14.08	36.42
362	63.83	17.90	46.35
363	77.19	21.64	56.07
364	90.25	25.28	65.57
365	103.00	28.83	74.85
366	115.45	32.30	83.92
367	127.60	35.68	92.78
368	139.45	38.96	101.42
369	151.00	42.16	109.84
370	162.24	45.28	118.05
371	173.19	48.30	126.04
372	183.83	51.24	133.82
373	194.17	54.09	141.38
374	204.22	56.85	148.73
375	213.96	59.53	155.86
376	223.40	62.12	162.77
377	232.54	64.62	169.47
378	241.38	67.04	175.96
379	249.93	69.37	182.22
380	258.17	71.62	188.27
381	266.11	73.78	194.11
382	273.76	75.85	199.73
383	281.11	77.85	205.13
384	288.16	79.75	210.32
385	294.91	81.58	215.29
386	301.36	83.31	220.05
387	307.52	84.97	224.59
388	313.37	86.54	228.91
389	318.93	88.03	233.02
390	324.20	89.43	236.91
391	329.16	90.75	240.59
392	333.83	91.99	244.05
393	338.20	93.15	247.29
394	342.28	94.22	250.32
395	346.06	95.21	253.13
396	349.54	96.12	255.73
397	352.73	96.94	258.11
398	355.62	97.69	260.27
399	358.21	98.35	262.22
400	360.51	98.93	263.95
401	362.52	99.44	265.46
402	364.22	99.86	266.76
403	365.64	100.19	267.84
404	366.76	100.45	268.71
405	367.58	100.63	269.35
406	368.11	100.73	269.79
407	368.35	100.74	270.00
408	368.29	100.68	270.00
409	367.93	100.54	269.79
410	367.29	100.32	269.36
411	366.34	100.01	268.71
412	365.11	99.63	267.85
413	363.58	99.17	266.76
414	361.76	98.63	265.47
415	359.64	98.01	263.95
416	357.23	97.31	262.23
417	354.53	96.54	260.28
418	351.54	95.68	258.12
419	348.25	94.75	255.74
420	344.67	93.73	253.15
421	340.80	92.64	250.34
422	336.63	91.47	247.31
423	332.17	90.23	244.07
424	327.42	88.90	240.61
425	322.38	87.50	236.94
426	317.05	86.02	233.05
427	311.42	84.46	228.94
428	305.50	82.82	224.62
429	299.29	81.11	220.08
430	292.79	79.32	215.32
431	286.00	77.45	210.35
432	278.91	75.51	205.17
433	271.54	73.48	199.76
434	263.87	71.38	194.14
435	255.91	69.21	188.31
436	247.66	66.95	182.26
437	239.12	64.62	175.99
438	230.29	62.22	169.51
439	221.17	59.73	162.81
440	211.76	57.17	155.90
441	202.05	54.54	148.77
442	192.06	51.82	141.43
443	181.77	49.03	133.87
444	171.20	46.17	126.09
445	160.33	43.22	118.10
446	149.18	40.21	109.89
447	137.73	37.11	101.47
448	126.00	33.94	92.83
449	113.97	30.69	83.98
450	101.65	27.37	74.91
451	89.05	23.97	65.62
452	76.15	20.49	56.12
453	62.97	16.94	46.41
454	49.49	13.31	36.48
455	35.72	9.61	26.34
456	21.67	5.82	15.98
457	7.32	1.97	5.40
458	7.27	2.83	4.48
459	21.67	8.45	13.37
460	35.79	13.96	22.07
461	49.61	19.36	30.59
462	63.15	24.64	38.93
463	76.39	29.81	47.09
464	89.35	34.87	55.07
465	102.01	39.82	62.87
466	114.39	44.66	70.48
467	126.47	49.39	77.92
468	138.27	54.00	85.17
469	149.77	58.50	92.25
470	160.98	62.89	99.14
471	171.90	67.17	105.85
472	182.53	71.34	112.38
473	192.88	75.39	118.73
474	202.92	79.34	124.90
475	212.68	83.17	130.89
476	222.15	86.88	136.69
477	231.33	90.49	142.32
478	240.21	93.98	147.76
479	248.80	97.36	153.02
480	257.10	100.63	158.10
481	265.11	103.78	163.00
482	272.83	106.82	167.72
483	280.25	109.75	172.26
484	287.39	112.57	176.61
485	294.23	115.27	180.79
486	300.77	117.86	184.78
487	307.03	120.34	188.59
488	312.99	122.70	192.22
489	318.66	124.95	195.67
490	324.04	127.08	198.94
491	329.12	129.10	202.02
492	333.91	131.01	204.93
493	338.41	132.81	207.65
494	342.61	134.49	210.19
495	346.52	136.05	212.55
496	350.14	137.50	214.73
497	353.46	138.84	216.73
498	356.49	140.06	218.54
499	359.22	141.17	220.18
500	361.66	142.16	221.63
501	363.80	143.04	222.90
502	365.65	143.80	223.99
503	367.20	144.44	224.90
504	368.46	144.98	225.62
505	369.43	145.39	226.17
506	370.09	145.69	226.53
507	370.47	145.87	226.71
508	370.54	145.94	226.72
509	370.32	145.89	226.53
510	369.81	145.73	226.17
511	368.99	145.45	225.63
512	367.88	145.05	224.90
513	366.48	144.53	224.00
514	364.77	143.90	222.91
515	362.77	143.15	221.64
516	360.48	142.28	220.19
517	357.88	141.30	218.55
518	354.99	140.19	216.74
519	351.80	138.97	214.74
520	348.31	137.63	212.56
521	344.52	136.18	210.21
522	340.43	134.60	207.66
523	336.05	132.91	204.94
524	331.36	131.09	202.04
525	326.38	129.16	198.96
526	321.10	127.11	195.69
527	315.51	124.94	192.24
528	309.63	122.64	188.61
529	303.45	120.23	184.80
530	296.97	117.70	180.81
531	290.18	115.05	176.64
532	283.10	112.27	172.28
533	275.71	109.38	167.75
534	268.03	106.36	163.03
535	260.04	103.23	158.13
536	251.75	99.97	153.05
537	243.16	96.59	147.79
538	234.26	93.09	142.35
539	225.07	89.46	136.73
540	215.57	85.71	130.92
541	205.76	81.84	124.93
542	195.66	77.85	118.77
543	185.25	73.73	112.42
544	174.54	69.49	105.89
545	163.52	65.13	99.18
546	152.20	60.64	92.29
547	140.57	56.03	85.22
548	128.64	51.29	77.96
549	116.40	46.43	70.53
550	103.86	41.44	62.91
551	91.02	36.33	55.11
552	77.86	31.09	47.14
553	64.41	25.73	38.98
554	50.64	20.23	30.64
555	36.57	14.62	22.12
556	22.19	8.87	13.42
557	7.50	3.00	4.54
558	8.03	8.17	0.15
559	23.94	24.36	0.44
560	39.55	40.24	0.72
561	54.85	55.81	1.00
562	69.84	71.07	1.27
563	84.52	86.00	1.54
564	98.90	100.63	1.80
565	112.96	114.94	2.06
566	126.71	128.93	2.30
567	140.15	142.60	2.55
568	153.28	155.96	2.78
569	166.10	169.00	3.02
570	178.60	181.72	3.24
571	190.79	194.13	3.46
572	202.67	206.21	3.67
573	214.23	217.98	3.88
574	225.48	229.42	4.08
575	236.42	240.55	4.28
576	247.04	251.35	4.47
577	257.34	261.84	4.65
578	267.33	272.00	4.83
579	277.00	281.84	5.00
580	286.35	291.35	5.17
581	295.39	300.54	5.33
582	304.10	309.41	5.48
583	312.50	317.95	5.63
584	320.58	326.17	5.77
585	328.34	334.06	5.91
586	335.78	341.63	6.04
587	342.89	348.87	6.16
588	349.69	355.78	6.28
589	356.16	362.37	6.40
590	362.31	368.63	6.50
591	368.14	374.55	6.60
592	373.65	380.15	6.70
593	378.83	385.42	6.79
594	383.68	390.36	6.87
595	388.21	394.97	6.95
596	392.42	399.24	7.02
597	396.30	403.19	7.08
598	399.85	406.80	7.14
599	403.07	410.08	7.20
600	405.97	413.02	7.24
601	408.53	415.63	7.29
602	410.77	417.91	7.32
603	412.68	419.85	7.35
604	414.26	421.45	7.37
605	415.51	422.72	7.39
606	416.42	423.64	7.40
607	417.00	424.24	7.41
608	417.26	424.49	7.41
609	417.17	424.40	7.40
610	416.76	423.98	7.39
611	416.01	423.21	7.37
612	414.92	422.10	7.35
613	413.50	420.66	7.32
614	411.74	418.87	7.29
615	409.65	416.73	7.24
616	407.21	414.25	7.20
617	404.44	411.43	7.14
618	401.33	408.27	7.08
619	397.88	404.76	7.02
620	394.09	400.90	6.95
621	389.96	396.70	6.87
622	385.49	392.15	6.79
623	380.68	387.25	6.70
624	375.52	382.00	6.60
625	370.02	376.40	6.50
626	364.18	370.46	6.40
627	357.99	364.16	6.28
628	351.46	357.51	6.17
629	344.58	350.51	6.04
630	337.35	343.16	5.91
631	329.78	335.45	5.77
632	321.86	327.39	5.63
633	313.59	318.98	5.48
634	304.97	310.21	5.33
635	296.00	301.08	5.17
636	286.68	291.60	5.00
637	277.00	281.76	4.83
638	266.98	271.56	4.65
639	256.60	261.00	4.47
640	245.87	250.09	4.28
641	234.79	238.81	4.08
642	223.34	227.17	3.88
643	211.55	215.17	3.68
644	199.39	202.81	3.46
645	186.88	190.08	3.24
646	174.02	176.99	3.02
647	160.79	163.54	2.79
648	147.20	149.72	2.55
649	133.25	135.53	2.31
650	118.95	120.98	2.06
651	104.28	106.06	1.80
652	89.24	90.77	1.54
653	73.85	75.11	1.27
654	58.09	59.08	1.00
655	41.96	42.68	0.72
656	25.47	25.91	0.44
657	8.62	8.76	0.15
658	10.04	10.90	20.57
659	29.96	32.51	61.35
660	49.52	53.71	101.33
661	68.71	74.49	140.50
662	87.53	94.85	178.87
663	105.97	114.80	216.42
664	124.05	134.32	253.17
665	141.75	153.41	289.10
666	159.08	172.09	324.21
667	176.04	190.33	358.51
668	192.62	208.16	391.99
669	208.82	225.55	424.66
670	224.64	242.52	456.50
671	240.09	259.06	487.52
672	255.15	275.18	517.72
673	269.83	290.86	547.10
674	284.13	306.11	575.65
675	298.05	320.92	603.37
676	311.58	335.31	630.27
677	324.72	349.26	656.33
678	337.48	362.77	681.57
679	349.85	375.85	705.98
680	361.83	388.49	729.55
681	373.42	400.70	752.29
682	384.62	412.47	774.20
683	395.42	423.80	795.27
684	405.84	434.68	815.51
685	415.85	445.13	834.91
686	425.47	455.14	853.47
687	434.69	464.70	871.19
688	443.51	473.82	888.08
689	451.93	482.50	904.12
690	459.95	490.74	919.33
691	467.57	498.53	933.69
692	474.78	505.87	947.21
693	481.59	512.77	959.89
694	487.99	519.22	971.73
695	493.98	525.23	982.73
696	499.56	530.78	992.88
697	504.74	535.89	1002.18
698	509.50	540.55	1010.64
699	513.85	544.76	1018.26
700	517.78	548.52	1025.03
701	521.30	551.83	1030.96
702	524.40	554.69	1036.04
703	527.09	557.09	1040.27
704	529.35	559.05	1043.66
705	531.19	560.55	1046.20
706	532.62	561.60	1047.90
707	533.61	562.20	1048.75
708	534.18	562.34	1048.75
709	534.33	562.03	1047.91
710	534.05	561.27	1046.22
711	533.34	560.05	1043.68
712	532.20	558.37	1040.30
713	530.62	556.25	1036.07
714	528.62	553.66	1030.99
715	526.17	550.62	1025.07
716	523.30	547.13	1018.30
717	519.98	543.18	1010.69
718	516.23	538.77	1002.23
719	512.03	533.91	992.93
720	507.40	528.58	982.79
721	502.32	522.81	971.80
722	496.79	516.57	959.97
723	490.82	509.88	947.29
724	484.40	502.74	933.77
725	477.53	495.13	919.42
726	470.21	487.07	904.22
727	462.44	478.55	888.18
728	454.22	469.58	871.30
729	445.54	460.15	853.58
730	436.40	450.26	835.02
731	426.81	439.91	815.62
732	416.75	429.11	795.39
733	406.23	417.85	774.33
734	395.25	406.13	752.42
735	383.81	393.96	729.69
736	371.90	381.33	706.12
737	359.52	368.25	681.72
738	346.68	354.71	656.48
739	333.36	340.72	630.42
740	319.57	326.26	603.53
741	305.30	311.36	575.81
742	290.56	296.00	547.27
743	275.35	280.18	517.90
744	259.65	263.91	487.70
745	243.48	247.19	456.69
746	226.82	230.02	424.85
747	209.68	212.39	392.19
748	192.05	194.31	358.71
749	173.93	175.77	324.42
750	155.33	156.79	289.30
751	136.24	137.35	253.38
752	116.65	117.47	216.64
753	96.57	97.13	179.09
754	76.00	76.35	140.73
755	54.93	55.11	101.56
756	33.36	33.43	61.59
757	11.29	11.30	20.81
758	14.42	7.58	20.68
759	43.07	22.59	61.69
760	71.22	37.28	101.87
761	98.87	51.66	141.23
762	126.01	65.73	179.78
763	152.65	79.49	217.51
764	178.78	92.93	254.41
765	204.40	106.06	290.49
766	229.50	118.87	325.74
767	254.09	131.37	360.18
768	278.16	143.56	393.78
769	301.71	155.43	426.56
770	324.74	166.98	458.51
771	347.24	178.22	489.63
772	369.21	189.15	519.92
773	390.65	199.75	549.38
774	411.56	210.05	578.01
775	431.94	220.03	605.80
776	451.77	229.69	632.76
777	471.07	239.04	658.89
778	489.82	248.07	684.18
779	508.02	256.79	708.64
780	525.68	265.19	732.26
781	542.78	273.28	755.04
782	559.33	281.06	776.99
783	575.33	288.51	798.09
784	590.76	295.66	818.36
785	605.64	302.49	837.79
786	619.95	309.00	856.38
787	633.69	315.20	874.12
788	646.86	321.09	891.03
789	659.46	326.66	907.09
790	671.49	331.92	922.31
791	682.93	336.87	936.69
792	693.80	341.50	950.22
793	704.08	345.82	962.91
794	713.78	349.83	974.76
795	722.88	353.53	985.76
796	731.40	356.91	995.91
797	739.32	359.99	1005.23
798	746.64	362.75	1013.69
799	753.37	365.21	1021.31
800	759.48	367.35	1028.09
801	765.00	369.19	1034.02
802	769.90	370.72	1039.10
803	774.20	371.94	1043.33
804	777.87	372.85	1046.72
805	780.94	373.46	1049.27
806	783.38	373.76	1050.96
807	785.19	373.75	1051.81
808	786.39	373.44	1051.81
809	786.95	372.83	1050.97
810	786.88	371.91	1049.28
811	786.17	370.69	1046.74
812	784.83	369.17	1043.36
813	782.85	367.35	1039.12
814	780.22	365.23	1034.05
815	776.95	362.81	1028.12
816	773.03	360.09	1021.35
817	768.45	357.07	1013.74
818	763.22	353.76	1005.28
819	757.34	350.15	995.97
820	750.79	346.25	985.82
821	743.57	342.05	974.82
822	735.69	337.57	962.98
