# ATLAS 5 CENTAUR DEB (44008), eccentricity: 0.40, perigee(km): 10702.85
0	31.27	17.51	40.33
1	67.03	29.82	93.41
2	179.09	79.30	249.12
3	289.39	127.56	401.77
4	397.90	174.59	551.37
5	504.62	220.38	697.90
6	609.52	264.95	841.36
7	712.58	308.30	981.74
8	813.80	350.43	1119.03
9	913.15	391.34	1253.22
10	1010.63	431.04	1384.31
11	1106.20	469.53	1512.29
12	1199.86	506.82	1637.15
13	1291.58	542.90	1758.89
14	1381.36	577.78	1877.49
15	1469.17	611.47	1992.96
16	1555.00	643.97	2105.29
17	1638.83	675.29	2214.46
18	1720.64	705.43	2320.48
19	1800.41	734.39	2423.34
20	1878.13	762.18	2523.03
21	1953.79	788.82	2619.55
22	2027.35	814.29	2712.90
23	2098.81	838.61	2803.06
24	2168.14	861.79	2890.03
25	2235.34	883.82	2973.81
26	2300.37	904.73	3054.39
27	2363.23	924.51	3131.78
28	2423.90	943.17	3205.96
29	2482.35	960.72	3276.92
30	2538.57	977.16	3344.68
31	2592.55	992.51	3409.22
32	2644.26	1006.77	3470.54
33	2693.69	1019.95	3528.63
34	2740.82	1032.05	3583.50
35	2785.63	1043.10	3635.14
36	2828.10	1053.09	3683.55
37	2868.22	1062.03	3728.72
38	2905.97	1069.93	3770.65
39	2941.33	1076.81	3809.35
40	2974.29	1082.67	3844.80
41	3004.82	1087.52	3877.01
42	3032.92	1091.37	3905.97
43	3058.55	1094.24	3931.69
44	3081.72	1096.12	3954.16
45	3102.39	1097.04	3973.38
46	3120.56	1097.01	3989.34
47	3136.20	1096.02	4002.06
48	3149.31	1094.10	4011.52
49	3159.86	1091.26	4017.74
50	3167.84	1087.51	4020.69
51	3173.24	1082.86	4020.40
52	3176.03	1077.32	4016.85
53	3176.21	1070.90	4010.05
54	3173.76	1063.62	3999.99
55	3168.67	1055.48	3986.69
56	3160.92	1046.51	3970.13
57	3150.50	1036.72	3950.32
58	3137.38	1026.10	3927.26
59	3121.57	1014.68	3900.96
60	3103.05	1002.47	3871.40
61	3081.81	989.49	3838.61
62	3057.83	975.74	3802.57
63	3031.10	961.24	3763.28
64	3001.62	946.01	3720.76
65	2969.37	930.05	3675.00
66	2934.34	913.38	3626.01
67	2896.52	896.02	3573.78
68	2855.91	877.97	3518.33
69	2812.49	859.25	3459.65
70	2766.25	839.87	3397.74
71	2717.20	819.85	3332.62
72	2665.32	799.20	3264.28
73	2610.60	777.93	3192.73
74	2553.04	756.06	3117.97
75	2492.63	733.59	3040.00
76	2429.38	710.54	2958.84
77	2363.27	686.93	2874.48
78	2294.30	662.77	2786.93
79	2222.47	638.06	2696.19
80	2147.77	612.83	2602.27
81	2070.21	587.08	2505.17
82	1989.78	560.83	2404.91
83	1906.48	534.08	2301.47
84	1820.32	506.85	2194.88
85	1731.29	479.15	2085.13
86	1639.40	450.99	1972.24
87	1544.64	422.38	1856.20
88	1447.03	393.34	1737.02
89	1346.56	363.86	1614.72
90	1243.24	333.97	1489.29
91	1137.07	303.67	1360.75
92	1028.06	272.96	1229.09
93	916.22	241.87	1094.34
94	801.54	210.39	956.49
95	684.05	178.54	815.55
96	563.75	146.32	671.53
97	440.64	113.73	524.44
98	314.74	80.79	374.29
99	186.05	47.50	221.08
100	54.60	13.86	64.82
101	77.70	154.16	77.36
102	207.00	411.07	206.29
103	333.52	662.90	332.65
104	457.26	909.61	456.46
105	578.19	1151.16	577.69
106	696.32	1387.52	696.36
107	811.63	1618.66	812.44
108	924.13	1844.55	925.95
109	1033.79	2065.16	1036.87
110	1140.63	2280.46	1145.20
111	1244.63	2490.42	1250.94
112	1345.79	2695.03	1354.08
113	1444.11	2894.26	1454.62
114	1539.59	3088.08	1552.55
115	1632.22	3276.48	1647.88
116	1722.00	3459.45	1740.59
117	1808.93	3636.95	1830.68
118	1893.02	3808.98	1918.16
119	1974.26	3975.52	2003.01
120	2052.66	4136.57	2085.24
121	2128.22	4292.10	2164.84
122	2200.93	4442.10	2241.80
123	2270.81	4586.58	2316.13
124	2337.86	4725.51	2387.82
125	2402.08	4858.90	2456.87
126	2463.48	4986.74	2523.28
127	2522.06	5109.03	2587.04
128	2577.83	5225.76	2648.15
129	2630.79	5336.94	2706.61
130	2680.97	5442.56	2762.42
131	2728.35	5542.63	2815.57
132	2772.95	5637.15	2866.06
133	2814.79	5726.12	2913.90
134	2853.86	5809.55	2959.07
135	2890.18	5887.45	3001.59
136	2923.76	5959.82	3041.43
137	2954.61	6026.67	3078.61
138	2982.74	6088.02	3113.13
139	3008.17	6143.87	3144.97
140	3030.89	6194.24	3174.15
141	3050.93	6239.13	3200.66
142	3068.31	6278.57	3224.49
143	3083.02	6312.56	3245.65
144	3095.09	6341.13	3264.14
145	3104.54	6364.30	3279.95
146	3111.36	6382.07	3293.09
147	3115.58	6394.48	3303.55
148	3117.22	6401.53	3311.33
149	3116.28	6403.25	3316.44
150	3112.79	6399.67	3318.88
151	3106.75	6390.79	3318.63
152	3098.19	6376.66	3315.72
153	3087.12	6357.28	3310.12
154	3073.55	6332.69	3301.85
155	3057.50	6302.91	3290.90
156	3038.99	6267.96	3277.28
157	3018.03	6227.88	3260.98
158	2994.64	6182.69	3242.01
159	2968.85	6132.41	3220.36
160	2940.65	6077.08	3196.04
161	2910.07	6016.73	3169.05
162	2877.14	5951.38	3139.39
163	2841.86	5881.06	3107.06
164	2804.25	5805.81	3072.06
165	2764.33	5725.65	3034.40
166	2722.11	5640.62	2994.07
167	2677.62	5550.74	2951.07
168	2630.88	5456.06	2905.41
169	2581.89	5356.60	2857.09
170	2530.67	5252.40	2806.12
171	2477.25	5143.49	2752.48
172	2421.65	5029.90	2696.19
173	2363.87	4911.66	2637.25
174	2303.93	4788.82	2575.66
175	2241.86	4661.41	2511.42
176	2177.67	4529.45	2444.53
177	2111.38	4392.99	2375.00
178	2043.01	4252.07	2302.83
179	1972.56	4106.71	2228.03
180	1900.07	3956.95	2150.58
181	1825.54	3802.83	2070.51
182	1749.00	3644.39	1987.81
183	1670.46	3481.66	1902.48
184	1589.94	3314.68	1814.52
185	1507.45	3143.49	1723.95
186	1423.01	2968.11	1630.77
187	1336.64	2788.60	1534.97
188	1248.36	2604.98	1436.56
189	1158.18	2417.29	1335.55
190	1066.12	2225.58	1231.94
191	972.19	2029.87	1125.73
192	876.41	1830.22	1016.93
193	778.80	1626.64	905.54
194	679.37	1419.19	791.56
195	578.14	1207.89	675.01
196	475.12	992.80	555.88
197	370.33	773.93	434.17
198	263.79	551.35	309.90
199	155.51	325.07	183.07
200	45.51	95.14	53.69
201	43.95	18.17	31.43
202	116.91	48.33	83.79
203	188.08	77.74	135.09
204	257.47	106.39	185.32
205	325.09	134.30	234.50
206	390.95	161.47	282.60
207	455.06	187.90	329.65
208	517.43	213.60	375.63
209	578.06	238.58	420.54
210	636.98	262.83	464.39
211	694.18	286.36	507.18
212	749.69	309.18	548.89
213	803.50	331.29	589.54
214	855.63	352.70	629.12
215	906.10	373.41	667.64
216	954.90	393.42	705.09
217	1002.05	412.74	741.47
218	1047.56	431.37	776.77
219	1091.43	449.33	811.02
220	1133.69	466.60	844.19
221	1174.33	483.21	876.29
222	1213.38	499.14	907.32
223	1250.83	514.41	937.28
224	1286.69	529.02	966.17
225	1320.98	542.98	993.99
226	1353.71	556.29	1020.74
227	1384.89	568.95	1046.41
228	1414.51	580.96	1071.01
229	1442.61	592.34	1094.55
230	1469.17	603.09	1117.01
231	1494.22	613.20	1138.39
232	1517.76	622.69	1158.71
233	1539.80	631.56	1177.95
234	1560.35	639.82	1196.11
235	1579.42	647.46	1213.21
236	1597.02	654.49	1229.23
237	1613.16	660.92	1244.17
238	1627.84	666.75	1258.05
239	1641.07	671.98	1270.84
240	1652.87	676.62	1282.57
241	1663.24	680.68	1293.22
242	1672.19	684.14	1302.79
243	1679.72	687.03	1311.30
244	1685.86	689.34	1318.72
245	1690.60	691.08	1325.07
246	1693.96	692.26	1330.35
247	1695.93	692.86	1334.55
248	1696.54	692.91	1337.68
249	1695.79	692.40	1339.73
250	1693.68	691.34	1340.71
251	1690.23	689.73	1340.61
252	1685.45	687.57	1339.44
253	1679.33	684.87	1337.19
254	1671.89	681.63	1333.87
255	1663.14	677.86	1329.47
256	1653.08	673.56	1324.00
257	1641.73	668.73	1317.45
258	1629.08	663.38	1309.83
259	1615.15	657.51	1301.14
260	1599.95	651.12	1291.37
261	1583.48	644.22	1280.52
262	1565.74	636.80	1268.60
263	1546.76	628.89	1255.61
264	1526.53	620.47	1241.54
265	1505.06	611.55	1226.40
266	1482.36	602.14	1210.18
267	1458.43	592.23	1192.90
268	1433.29	581.84	1174.53
269	1406.94	570.96	1155.10
270	1379.38	559.60	1134.59
271	1350.63	547.76	1113.01
272	1320.68	535.44	1090.35
273	1289.56	522.65	1066.63
274	1257.25	509.39	1041.83
275	1223.78	495.67	1015.96
276	1189.15	481.48	989.02
277	1153.35	466.84	961.00
278	1116.41	451.73	931.92
279	1078.33	436.18	901.77
280	1039.10	420.17	870.54
281	998.75	403.72	838.24
282	957.27	386.82	804.88
283	914.67	369.48	770.44
284	870.96	351.71	734.94
285	826.15	333.50	698.37
286	780.23	314.85	660.73
287	733.22	295.78	622.02
288	685.12	276.28	582.24
289	635.94	256.36	541.40
290	585.68	236.02	499.49
291	534.35	215.26	456.51
292	481.96	194.08	412.47
293	428.51	172.50	367.36
294	374.00	150.50	321.19
295	318.44	128.10	273.95
296	261.85	105.29	225.65
297	204.21	82.09	176.28
298	145.55	58.48	125.86
299	85.85	34.49	74.37
300	25.14	10.09	21.81
301	26.60	10.74	20.49
302	70.80	28.58	54.61
303	113.99	45.98	88.05
304	156.16	62.94	120.78
305	197.32	79.48	152.83
306	237.46	95.58	184.18
307	276.61	111.26	214.83
308	314.75	126.52	244.79
309	351.90	141.35	274.05
310	388.06	155.77	302.62
311	423.23	169.77	330.49
312	457.41	183.35	357.67
313	490.62	196.52	384.15
314	522.85	209.29	409.94
315	554.11	221.64	435.02
316	584.40	233.60	459.41
317	613.73	245.14	483.11
318	642.09	256.29	506.11
319	669.50	267.04	528.41
320	695.96	277.40	550.01
321	721.47	287.36	570.91
322	746.03	296.93	591.12
323	769.66	306.11	610.63
324	792.34	314.90	629.44
325	814.09	323.31	647.56
326	834.91	331.34	664.97
327	854.81	338.98	681.69
328	873.78	346.25	697.71
329	891.83	353.14	713.03
330	908.96	359.66	727.66
331	925.19	365.81	741.58
332	940.50	371.59	754.80
333	954.91	377.00	767.33
334	968.41	382.04	779.16
335	981.02	386.73	790.29
336	992.73	391.05	800.72
337	1003.55	395.01	810.45
338	1013.48	398.62	819.48
339	1022.53	401.87	827.81
340	1030.69	404.77	835.44
341	1037.97	407.32	842.37
342	1044.38	409.52	848.61
343	1049.91	411.37	854.14
344	1054.58	412.88	858.97
345	1058.38	414.05	863.11
346	1061.32	414.87	866.54
347	1063.39	415.36	869.28
348	1064.61	415.51	871.31
349	1064.98	415.33	872.65
350	1064.49	414.81	873.28
351	1063.16	413.96	873.22
352	1060.98	412.79	872.46
353	1057.96	411.29	871.00
354	1054.10	409.46	868.83
355	1049.41	407.31	865.97
356	1043.88	404.84	862.41
357	1037.52	402.05	858.15
358	1030.34	398.94	853.19
359	1022.33	395.52	847.53
360	1013.50	391.79	841.17
361	1003.85	387.74	834.11
362	993.38	383.39	826.35
363	982.10	378.72	817.89
364	970.01	373.75	808.73
365	957.11	368.48	798.87
366	943.41	362.90	788.32
367	928.90	357.03	777.06
368	913.60	350.85	765.11
369	897.50	344.38	752.46
370	880.60	337.61	739.10
371	862.91	330.55	725.05
372	844.43	323.20	710.30
373	825.16	315.56	694.86
374	805.12	307.63	678.71
375	784.28	299.42	661.87
376	762.67	290.92	644.32
377	740.28	282.14	626.08
378	717.12	273.08	607.14
379	693.19	263.73	587.51
380	668.49	254.12	567.17
381	643.01	244.22	546.14
382	616.78	234.05	524.41
383	589.78	223.61	501.98
384	562.03	212.90	478.86
385	533.51	201.93	455.04
386	504.24	190.68	430.52
387	474.22	179.17	405.31
388	443.44	167.39	379.40
389	411.92	155.36	352.79
390	379.65	143.06	325.49
391	346.64	130.50	297.49
392	312.89	117.69	268.79
393	278.39	104.62	239.40
394	243.16	91.30	209.32
395	207.20	77.72	178.54
396	170.50	63.90	147.06
397	133.07	49.83	114.89
398	94.91	35.51	82.03
399	56.03	20.94	48.47
400	16.42	6.13	14.22
401	19.83	7.01	14.57
402	52.83	18.65	38.85
403	85.11	30.01	62.63
404	116.67	41.09	85.91
405	147.51	51.89	108.70
406	177.63	62.42	131.00
407	207.04	72.67	152.80
408	235.73	82.65	174.11
409	263.72	92.36	194.92
410	290.99	101.80	215.23
411	317.55	110.97	235.05
412	343.41	119.88	254.38
413	368.57	128.51	273.21
414	393.02	136.89	291.54
415	416.77	145.00	309.38
416	439.81	152.85	326.72
417	462.16	160.44	343.57
418	483.82	167.76	359.92
419	504.77	174.84	375.78
420	525.04	181.65	391.14
421	544.61	188.21	406.00
422	563.48	194.52	420.36
423	581.67	200.57	434.23
424	599.17	206.38	447.61
425	615.99	211.93	460.49
426	632.12	217.23	472.87
427	647.56	222.29	484.75
428	662.32	227.11	496.14
429	676.41	231.67	507.03
430	689.81	236.00	517.42
431	702.53	240.08	527.32
432	714.58	243.92	536.72
433	725.95	247.53	545.63
434	736.65	250.89	554.03
435	746.67	254.02	561.94
436	756.03	256.91	569.36
437	764.71	259.57	576.27
438	772.72	261.99	582.69
439	780.07	264.18	588.61
440	786.75	266.14	594.04
441	792.77	267.88	598.96
442	798.12	269.38	603.39
443	802.81	270.66	607.33
444	806.85	271.71	610.76
445	810.22	272.53	613.70
446	812.93	273.13	616.14
447	814.98	273.51	618.09
448	816.38	273.67	619.53
449	817.13	273.61	620.48
450	817.22	273.33	620.93
451	816.66	272.83	620.89
452	815.44	272.11	620.35
453	813.58	271.18	619.31
454	811.07	270.04	617.77
455	807.91	268.68	615.74
456	804.11	267.11	613.20
457	799.66	265.33	610.18
458	794.57	263.34	606.65
459	788.83	261.14	602.63
460	782.45	258.73	598.11
461	775.43	256.11	593.09
462	767.77	253.29	587.57
463	759.47	250.27	581.56
464	750.54	247.04	575.05
465	740.97	243.61	568.05
466	730.76	239.98	560.54
467	719.92	236.15	552.54
468	708.45	232.12	544.05
469	696.34	227.89	535.05
470	683.61	223.47	525.56
471	670.24	218.84	515.57
472	656.24	214.03	505.09
473	641.62	209.02	494.11
474	626.37	203.82	482.63
475	610.49	198.42	470.66
476	593.99	192.84	458.19
477	576.87	187.06	445.22
478	559.12	181.10	431.75
479	540.75	174.94	417.79
480	521.76	168.61	403.34
481	502.15	162.08	388.38
482	481.92	155.37	372.94
483	461.07	148.48	356.99
484	439.61	141.42	340.55
485	417.53	134.16	323.61
486	394.83	126.72	306.18
487	371.52	119.10	288.25
488	347.59	111.30	269.83
489	323.06	103.33	250.91
490	297.91	95.17	231.49
491	272.14	86.84	211.58
492	245.77	78.34	191.18
493	218.79	69.66	170.28
494	191.21	60.80	148.88
495	163.01	51.78	126.99
496	134.21	42.58	104.60
497	104.80	33.21	81.72
498	74.79	23.67	58.35
499	44.17	13.96	34.48
500	12.95	4.09	10.11
501	17.25	6.05	11.35
502	45.96	16.11	30.26
503	74.07	25.96	48.78
504	101.58	35.58	66.92
505	128.49	44.98	84.67
506	154.80	54.16	102.03
507	180.51	63.12	119.01
508	205.62	71.86	135.60
509	230.13	80.38	151.81
510	254.05	88.69	167.63
511	277.37	96.78	183.07
512	300.09	104.65	198.12
513	322.21	112.31	212.78
514	343.74	119.75	227.06
515	364.67	126.98	240.95
516	385.01	133.99	254.46
517	404.76	140.79	267.57
518	423.91	147.37	280.31
519	442.47	153.75	292.65
520	460.43	159.91	304.61
521	477.81	165.86	316.18
522	494.59	171.60	327.37
523	510.78	177.14	338.17
524	526.38	182.46	348.58
525	541.39	187.57	358.61
526	555.81	192.47	368.25
527	569.64	197.17	377.50
528	582.88	201.66	386.37
529	595.54	205.94	394.85
530	607.60	210.01	402.94
531	619.08	213.88	410.65
532	629.97	217.54	417.97
533	640.28	221.00	424.90
534	650.00	224.25	431.44
535	659.13	227.30	437.60
536	667.68	230.14	443.37
537	675.64	232.78	448.76
538	683.02	235.22	453.75
539	689.81	237.46	458.36
540	696.02	239.49	462.59
541	701.65	241.32	466.42
542	706.69	242.95	469.87
543	711.15	244.38	472.93
544	715.03	245.61	475.61
545	718.33	246.64	477.90
546	721.04	247.47	479.80
547	723.18	248.10	481.31
548	724.73	248.53	482.44
549	725.70	248.76	483.17
550	726.09	248.80	483.53
551	725.91	248.63	483.49
552	725.14	248.27	483.07
553	723.79	247.71	482.26
554	721.87	246.96	481.06
555	719.36	246.01	479.48
556	716.28	244.86	477.51
557	712.62	243.52	475.15
558	708.38	241.98	472.41
559	703.56	240.24	469.27
560	698.17	238.32	465.75
561	692.20	236.19	461.85
562	685.65	233.87	457.55
563	678.53	231.36	452.87
564	670.83	228.66	447.81
565	662.56	225.76	442.35
566	653.71	222.66	436.51
567	644.28	219.38	430.28
568	634.28	215.90	423.67
569	623.70	212.23	416.67
570	612.55	208.37	409.28
571	600.83	204.31	401.50
572	588.53	200.06	393.34
573	575.66	195.62	384.79
574	562.21	190.99	375.85
575	548.19	186.17	366.53
576	533.59	181.16	356.82
577	518.43	175.96	346.72
578	502.69	170.56	336.24
579	486.37	164.98	325.37
580	469.49	159.20	314.11
581	452.03	153.24	302.47
582	434.00	147.08	290.44
583	415.40	140.74	278.02
584	396.22	134.21	265.22
585	376.48	127.48	252.03
586	356.16	120.57	238.46
587	335.27	113.47	224.50
588	313.81	106.18	210.15
589	291.77	98.70	195.42
590	269.17	91.03	180.30
591	246.00	83.17	164.79
592	222.25	75.12	148.90
593	197.93	66.89	132.62
594	173.05	58.46	115.96
595	147.59	49.85	98.91
596	121.56	41.05	81.47
597	94.97	32.06	63.65
598	67.80	22.88	45.45
599	40.06	13.52	26.85
600	11.75	3.96	7.88
601	16.96	8.63	8.43
602	45.21	23.02	22.46
603	72.89	37.11	36.21
604	100.00	50.92	49.67
605	126.54	64.44	62.84
606	152.51	77.67	75.73
607	177.91	90.61	88.33
608	202.73	103.27	100.64
609	226.99	115.63	112.67
610	250.68	127.71	124.41
611	273.79	139.50	135.87
612	296.34	151.00	147.03
613	318.31	162.21	157.91
614	339.71	173.13	168.51
615	360.54	183.76	178.81
616	380.79	194.11	188.83
617	400.48	204.16	198.57
618	419.59	213.92	208.02
619	438.13	223.40	217.18
620	456.10	232.58	226.05
621	473.49	241.48	234.63
622	490.31	250.08	242.93
623	506.56	258.40	250.95
624	522.24	266.43	258.67
625	537.34	274.16	266.11
626	551.86	281.60	273.26
627	565.82	288.76	280.13
628	579.20	295.62	286.70
629	592.00	302.19	292.99
630	604.23	308.47	299.00
631	615.88	314.46	304.71
632	626.96	320.15	310.14
633	637.47	325.56	315.28
634	647.39	330.67	320.14
635	656.74	335.49	324.71
636	665.52	340.01	328.99
637	673.72	344.25	332.98
638	681.34	348.19	336.69
639	688.38	351.84	340.11
640	694.85	355.19	343.24
641	700.74	358.25	346.09
642	706.05	361.02	348.64
643	710.79	363.49	350.92
644	714.94	365.66	352.90
645	718.52	367.55	354.60
646	721.51	369.13	356.01
647	723.93	370.42	357.13
648	725.76	371.42	357.96
649	727.02	372.12	358.51
650	727.70	372.52	358.77
651	727.79	372.63	358.75
652	727.30	372.44	358.43
653	726.23	371.95	357.83
654	724.58	371.16	356.95
655	722.35	370.08	355.77
656	719.53	368.70	354.31
657	716.14	367.01	352.56
658	712.15	365.03	350.52
659	707.59	362.75	348.20
660	702.44	360.17	345.59
661	696.70	357.29	342.69
662	690.38	354.11	339.51
663	683.47	350.63	336.04
664	675.98	346.85	332.28
665	667.90	342.77	328.23
666	659.24	338.38	323.90
667	649.98	333.69	319.28
668	640.14	328.70	314.37
669	629.71	323.40	309.18
670	618.70	317.80	303.70
671	607.09	311.90	297.93
672	594.89	305.69	291.87
673	582.11	299.18	285.53
674	568.73	292.36	278.90
675	554.77	285.24	271.98
676	540.21	277.81	264.78
677	525.06	270.07	257.29
678	509.31	262.02	249.51
679	492.98	253.67	241.45
680	476.05	245.01	233.10
681	458.52	236.04	224.46
682	440.41	226.76	215.53
683	421.69	217.17	206.32
684	402.39	207.27	196.82
685	382.48	197.06	187.04
686	361.98	186.53	176.96
687	340.88	175.70	166.61
688	319.19	164.55	155.96
689	296.89	153.09	145.03
690	274.00	141.32	133.81
691	250.51	129.23	122.30
692	226.41	116.83	110.51
693	201.72	104.11	98.43
694	176.43	91.08	86.06
695	150.53	77.73	73.41
696	124.03	64.06	60.47
697	96.93	50.07	47.24
698	69.23	35.77	33.73
699	40.92	21.15	19.93
700	12.01	6.21	5.85
701	18.79	26.75	8.34
702	50.11	71.33	22.23
703	80.82	115.05	35.84
704	110.93	157.91	49.16
705	140.42	199.89	62.21
706	169.31	241.01	74.96
707	197.59	281.26	87.44
708	225.26	320.63	99.63
709	252.32	359.13	111.53
710	278.76	396.76	123.15
711	304.59	433.51	134.49
712	329.81	469.39	145.55
713	354.41	504.38	156.32
714	378.39	538.50	166.80
715	401.76	571.73	177.00
716	424.51	604.09	186.92
717	446.64	635.55	196.56
718	468.15	666.14	205.91
719	489.05	695.83	214.97
720	509.31	724.64	223.76
721	528.96	752.56	232.26
722	547.98	779.59	240.47
723	566.38	805.72	248.40
724	584.15	830.96	256.05
725	601.29	855.31	263.41
726	617.81	878.76	270.49
727	633.70	901.31	277.28
728	648.95	922.96	283.79
729	663.58	943.71	290.02
730	677.57	963.56	295.96
731	690.93	982.51	301.62
732	703.66	1000.55	306.99
733	715.75	1017.68	312.08
734	727.21	1033.91	316.89
735	738.03	1049.22	321.41
736	748.20	1063.63	325.65
737	757.74	1077.12	329.60
738	766.64	1089.70	333.27
739	774.90	1101.37	336.65
740	782.51	1112.11	339.75
741	789.48	1121.94	342.57
742	795.81	1130.85	345.10
743	801.48	1138.84	347.35
744	806.51	1145.90	349.31
745	810.89	1152.04	350.99
746	814.63	1157.25	352.39
747	817.71	1161.54	353.50
748	820.13	1164.90	354.33
749	821.91	1167.32	354.87
750	823.02	1168.82	355.13
751	823.49	1169.38	355.10
752	823.29	1169.01	354.79
753	822.44	1167.70	354.20
754	820.92	1165.45	353.32
755	818.75	1162.26	352.16
756	815.91	1158.13	350.71
757	812.41	1153.06	348.98
758	808.24	1147.04	346.96
759	803.41	1140.08	344.66
760	797.91	1132.17	342.08
761	791.74	1123.31	339.21
762	784.90	1113.50	336.06
763	777.39	1102.74	332.62
764	769.20	1091.02	328.90
765	760.35	1078.35	324.90
766	750.81	1064.72	320.61
767	740.60	1050.13	316.04
768	729.71	1034.58	311.18
769	718.13	1018.07	306.04
770	705.88	1000.59	300.61
771	692.95	982.15	294.90
772	679.33	962.74	288.91
773	665.02	942.36	282.63
774	650.03	921.01	276.07
775	634.34	898.69	269.22
776	617.97	875.40	262.09
777	600.91	851.13	254.68
778	583.15	825.88	246.98
779	564.70	799.65	239.00
780	545.55	772.45	230.73
781	525.70	744.26	222.18
782	505.16	715.08	213.35
